 Ag Density=10.5 Thickness=1. microns
 Photon Energy (eV), Transmission
    5000.0      0.46439    
    5040.8      0.47180    
    5081.6      0.47913    
    5122.4      0.48637    
    5163.3      0.49353    
    5204.1      0.50059    
    5244.9      0.50757    
    5285.7      0.51445    
    5326.5      0.52125    
    5367.3      0.52795    
    5408.2      0.53457    
    5449.0      0.54109    
    5489.8      0.54753    
    5530.6      0.55388    
    5571.4      0.56013    
    5612.2      0.56630    
    5653.1      0.57238    
    5693.9      0.57838    
    5734.7      0.58428    
    5775.5      0.59010    
    5816.3      0.59584    
    5857.1      0.60148    
    5898.0      0.60705    
    5938.8      0.61253    
    5979.6      0.61793    
    6020.4      0.62325    
    6061.2      0.62848    
    6102.0      0.63364    
    6142.9      0.63871    
    6183.7      0.64371    
    6224.5      0.64863    
    6265.3      0.65348    
    6306.1      0.65824    
    6346.9      0.66294    
    6387.8      0.66756    
    6428.6      0.67210    
    6469.4      0.67658    
    6510.2      0.68099    
    6551.0      0.68533    
    6591.8      0.68960    
    6632.7      0.69380    
    6673.5      0.69793    
    6714.3      0.70200    
    6755.1      0.70600    
    6795.9      0.70995    
    6836.7      0.71382    
    6877.6      0.71764    
    6918.4      0.72140    
    6959.2      0.72510    
    7000.0      0.72874    
    7040.8      0.73232    
    7081.6      0.73584    
    7122.4      0.73931    
    7163.3      0.74272    
    7204.1      0.74608    
    7244.9      0.74939    
    7285.7      0.75264    
    7326.5      0.75584    
    7367.3      0.75899    
    7408.2      0.76209    
    7449.0      0.76515    
    7489.8      0.76815    
    7530.6      0.77111    
    7571.4      0.77402    
    7612.2      0.77689    
    7653.1      0.77971    
    7693.9      0.78249    
    7734.7      0.78522    
    7775.5      0.78791    
    7816.3      0.79056    
    7857.1      0.79317    
    7898.0      0.79573    
    7938.8      0.79826    
    7979.6      0.80075    
    8020.4      0.80320    
    8061.2      0.80561    
    8102.0      0.80799    
    8142.9      0.81032    
    8183.7      0.81263    
    8224.5      0.81489    
    8265.3      0.81713    
    8306.1      0.81933    
    8346.9      0.82149    
    8387.8      0.82362    
    8428.6      0.82572    
    8469.4      0.82779    
    8510.2      0.82983    
    8551.0      0.83184    
    8591.8      0.83381    
    8632.7      0.83576    
    8673.5      0.83768    
    8714.3      0.83957    
    8755.1      0.84143    
    8795.9      0.84327    
    8836.7      0.84507    
    8877.6      0.84685    
    8918.4      0.84861    
    8959.2      0.85034    
    9000.0      0.85204    
    9040.8      0.85372    
    9081.6      0.85537    
    9122.4      0.85700    
    9163.3      0.85860    
    9204.1      0.86018    
    9244.9      0.86174    
    9285.7      0.86328    
    9326.5      0.86480    
    9367.3      0.86629    
    9408.2      0.86777    
    9449.0      0.86922    
    9489.8      0.87065    
    9530.6      0.87206    
    9571.4      0.87345    
    9612.2      0.87482    
    9653.1      0.87617    
    9693.9      0.87750    
    9734.7      0.87882    
    9775.5      0.88011    
    9816.3      0.88139    
    9857.1      0.88265    
    9898.0      0.88390    
    9938.8      0.88512    
    9979.6      0.88633    
    10020.      0.88752    
    10061.      0.88870    
    10102.      0.88986    
    10143.      0.89100    
    10184.      0.89213    
    10224.      0.89324    
    10265.      0.89434    
    10306.      0.89543    
    10347.      0.89649    
    10388.      0.89755    
    10429.      0.89859    
    10469.      0.89962    
    10510.      0.90063    
    10551.      0.90163    
    10592.      0.90262    
    10633.      0.90359    
    10673.      0.90455    
    10714.      0.90550    
    10755.      0.90643    
    10796.      0.90736    
    10837.      0.90827    
    10878.      0.90917    
    10918.      0.91006    
    10959.      0.91093    
    11000.      0.91180    
    11041.      0.91265    
    11082.      0.91350    
    11122.      0.91433    
    11163.      0.91515    
    11204.      0.91596    
    11245.      0.91677    
    11286.      0.91756    
    11327.      0.91834    
    11367.      0.91911    
    11408.      0.91987    
    11449.      0.92062    
    11490.      0.92137    
    11531.      0.92210    
    11571.      0.92283    
    11612.      0.92354    
    11653.      0.92425    
    11694.      0.92495    
    11735.      0.92564    
    11776.      0.92632    
    11816.      0.92699    
    11857.      0.92766    
    11898.      0.92832    
    11939.      0.92897    
    11980.      0.92961    
    12020.      0.93024    
    12061.      0.93087    
    12102.      0.93148    
    12143.      0.93210    
    12184.      0.93270    
    12224.      0.93330    
    12265.      0.93389    
    12306.      0.93447    
    12347.      0.93505    
    12388.      0.93562    
    12429.      0.93618    
    12469.      0.93673    
    12510.      0.93728    
    12551.      0.93783    
    12592.      0.93836    
    12633.      0.93890    
    12673.      0.93942    
    12714.      0.93994    
    12755.      0.94045    
    12796.      0.94096    
    12837.      0.94146    
    12878.      0.94196    
    12918.      0.94245    
    12959.      0.94293    
    13000.      0.94341    
    13041.      0.94388    
    13082.      0.94435    
    13122.      0.94481    
    13163.      0.94527    
    13204.      0.94572    
    13245.      0.94617    
    13286.      0.94662    
    13327.      0.94705    
    13367.      0.94749    
    13408.      0.94792    
    13449.      0.94834    
    13490.      0.94876    
    13531.      0.94917    
    13571.      0.94958    
    13612.      0.94999    
    13653.      0.95039    
    13694.      0.95079    
    13735.      0.95118    
    13776.      0.95157    
    13816.      0.95195    
    13857.      0.95233    
    13898.      0.95271    
    13939.      0.95308    
    13980.      0.95345    
    14020.      0.95381    
    14061.      0.95418    
    14102.      0.95453    
    14143.      0.95489    
    14184.      0.95523    
    14224.      0.95558    
    14265.      0.95592    
    14306.      0.95626    
    14347.      0.95660    
    14388.      0.95693    
    14429.      0.95726    
    14469.      0.95758    
    14510.      0.95790    
    14551.      0.95822    
    14592.      0.95854    
    14633.      0.95885    
    14673.      0.95916    
    14714.      0.95946    
    14755.      0.95977    
    14796.      0.96006    
    14837.      0.96036    
    14878.      0.96065    
    14918.      0.96095    
    14959.      0.96123    
    15000.      0.96152    
    15041.      0.96180    
    15082.      0.96208    
    15122.      0.96236    
    15163.      0.96263    
    15204.      0.96290    
    15245.      0.96317    
    15286.      0.96343    
    15327.      0.96370    
    15367.      0.96396    
    15408.      0.96422    
    15449.      0.96447    
    15490.      0.96473    
    15531.      0.96498    
    15571.      0.96522    
    15612.      0.96547    
    15653.      0.96571    
    15694.      0.96596    
    15735.      0.96619    
    15776.      0.96643    
    15816.      0.96667    
    15857.      0.96690    
    15898.      0.96713    
    15939.      0.96736    
    15980.      0.96758    
    16020.      0.96781    
    16061.      0.96803    
    16102.      0.96825    
    16143.      0.96846    
    16184.      0.96868    
    16224.      0.96889    
    16265.      0.96910    
    16306.      0.96931    
    16347.      0.96952    
    16388.      0.96973    
    16429.      0.96993    
    16469.      0.97013    
    16510.      0.97033    
    16551.      0.97053    
    16592.      0.97073    
    16633.      0.97092    
    16673.      0.97112    
    16714.      0.97131    
    16755.      0.97150    
    16796.      0.97168    
    16837.      0.97187    
    16878.      0.97206    
    16918.      0.97224    
    16959.      0.97242    
    17000.      0.97260    
    17041.      0.97278    
    17082.      0.97295    
    17122.      0.97313    
    17163.      0.97330    
    17204.      0.97347    
    17245.      0.97364    
    17286.      0.97381    
    17327.      0.97398    
    17367.      0.97415    
    17408.      0.97431    
    17449.      0.97447    
    17490.      0.97464    
    17531.      0.97480    
    17571.      0.97496    
    17612.      0.97511    
    17653.      0.97527    
    17694.      0.97542    
    17735.      0.97558    
    17776.      0.97573    
    17816.      0.97588    
    17857.      0.97603    
    17898.      0.97618    
    17939.      0.97633    
    17980.      0.97647    
    18020.      0.97662    
    18061.      0.97676    
    18102.      0.97690    
    18143.      0.97704    
    18184.      0.97718    
    18224.      0.97732    
    18265.      0.97746    
    18306.      0.97760    
    18347.      0.97773    
    18388.      0.97787    
    18429.      0.97800    
    18469.      0.97813    
    18510.      0.97826    
    18551.      0.97839    
    18592.      0.97852    
    18633.      0.97865    
    18673.      0.97878    
    18714.      0.97890    
    18755.      0.97903    
    18796.      0.97915    
    18837.      0.97927    
    18878.      0.97939    
    18918.      0.97951    
    18959.      0.97963    
    19000.      0.97975    
    19041.      0.97987    
    19082.      0.97999    
    19122.      0.98010    
    19163.      0.98022    
    19204.      0.98033    
    19245.      0.98045    
    19286.      0.98056    
    19327.      0.98067    
    19367.      0.98078    
    19408.      0.98089    
    19449.      0.98100    
    19490.      0.98111    
    19531.      0.98121    
    19571.      0.98132    
    19612.      0.98143    
    19653.      0.98153    
    19694.      0.98164    
    19735.      0.98174    
    19776.      0.98184    
    19816.      0.98194    
    19857.      0.98204    
    19898.      0.98214    
    19939.      0.98224    
    19980.      0.98234    
    20020.      0.98244    
    20061.      0.98254    
    20102.      0.98263    
    20143.      0.98273    
    20184.      0.98282    
    20224.      0.98292    
    20265.      0.98301    
    20306.      0.98310    
    20347.      0.98319    
    20388.      0.98329    
    20429.      0.98338    
    20469.      0.98347    
    20510.      0.98356    
    20551.      0.98364    
    20592.      0.98373    
    20633.      0.98382    
    20673.      0.98391    
    20714.      0.98399    
    20755.      0.98408    
    20796.      0.98416    
    20837.      0.98425    
    20878.      0.98433    
    20918.      0.98441    
    20959.      0.98450    
    21000.      0.98458    
    21041.      0.98466    
    21082.      0.98474    
    21122.      0.98482    
    21163.      0.98490    
    21204.      0.98498    
    21245.      0.98506    
    21286.      0.98513    
    21327.      0.98521    
    21367.      0.98529    
    21408.      0.98536    
    21449.      0.98544    
    21490.      0.98551    
    21531.      0.98559    
    21571.      0.98566    
    21612.      0.98574    
    21653.      0.98581    
    21694.      0.98588    
    21735.      0.98595    
    21776.      0.98603    
    21816.      0.98610    
    21857.      0.98617    
    21898.      0.98624    
    21939.      0.98631    
    21980.      0.98637    
    22020.      0.98644    
    22061.      0.98651    
    22102.      0.98658    
    22143.      0.98665    
    22184.      0.98671    
    22224.      0.98678    
    22265.      0.98684    
    22306.      0.98691    
    22347.      0.98697    
    22388.      0.98704    
    22429.      0.98710    
    22469.      0.98717    
    22510.      0.98723    
    22551.      0.98729    
    22592.      0.98735    
    22633.      0.98742    
    22673.      0.98748    
    22714.      0.98754    
    22755.      0.98760    
    22796.      0.98766    
    22837.      0.98772    
    22878.      0.98778    
    22918.      0.98784    
    22959.      0.98789    
    23000.      0.98795    
    23041.      0.98801    
    23082.      0.98807    
    23122.      0.98813    
    23163.      0.98818    
    23204.      0.98824    
    23245.      0.98829    
    23286.      0.98835    
    23327.      0.98840    
    23367.      0.98846    
    23408.      0.98851    
    23449.      0.98857    
    23490.      0.98862    
    23531.      0.98868    
    23571.      0.98873    
    23612.      0.98878    
    23653.      0.98883    
    23694.      0.98889    
    23735.      0.98894    
    23776.      0.98899    
    23816.      0.98904    
    23857.      0.98909    
    23898.      0.98914    
    23939.      0.98919    
    23980.      0.98924    
    24020.      0.98929    
    24061.      0.98934    
    24102.      0.98939    
    24143.      0.98944    
    24184.      0.98948    
    24224.      0.98953    
    24265.      0.98958    
    24306.      0.98963    
    24347.      0.98967    
    24388.      0.98972    
    24429.      0.98977    
    24469.      0.98981    
    24510.      0.98986    
    24551.      0.98990    
    24592.      0.98995    
    24633.      0.98999    
    24673.      0.99004    
    24714.      0.99008    
    24755.      0.99013    
    24796.      0.99017    
    24837.      0.99021    
    24878.      0.99026    
    24918.      0.99030    
    24959.      0.99034    
    25000.      0.99039    